Time (min),Temperature (°C),Compressor State,Error (°C),Perturbation (°C)
0,24.0,0,2.0,0.0
1,23.8,1,1.8000000000000007,0.0
2,23.6,1,1.6000000000000014,0.0
3,23.400000000000002,1,1.4000000000000021,0.0
4,23.200000000000003,1,1.2000000000000028,0.0
5,23.000000000000004,1,1.0000000000000036,0.0
6,22.800000000000004,1,0.8000000000000043,0.0
7,22.600000000000005,1,0.600000000000005,0.0
8,22.400000000000006,1,0.4000000000000057,0.0
9,22.200000000000006,1,0.2000000000000064,0.0
10,22.000000000000007,1,7.105427357601002e-15,0.0
11,21.800000000000008,1,-0.19999999999999218,0.0
12,21.60000000000001,1,-0.3999999999999915,0.0
13,21.40000000000001,1,-0.5999999999999908,0.0
14,21.40000000000001,0,-0.5999999999999908,0.0
15,21.40000000000001,0,-0.5999999999999908,0.0
16,21.40000000000001,0,-0.5999999999999908,0.0
17,21.40000000000001,0,-0.5999999999999908,0.0
18,21.40000000000001,0,-0.5999999999999908,0.0
19,21.40000000000001,0,-0.5999999999999908,0.0
20,21.40000000000001,0,-0.5999999999999908,0.0
21,21.40000000000001,0,-0.5999999999999908,0.0
22,21.40000000000001,0,-0.5999999999999908,0.0
23,21.40000000000001,0,-0.5999999999999908,0.0
24,21.40000000000001,0,-0.5999999999999908,0.0
25,21.40000000000001,0,-0.5999999999999908,0.0
26,21.40000000000001,0,-0.5999999999999908,0.0
27,21.40000000000001,0,-0.5999999999999908,0.0
28,21.40000000000001,0,-0.5999999999999908,0.0
29,21.40000000000001,0,-0.5999999999999908,0.0
30,21.40000000000001,0,-0.5999999999999908,0.0
31,21.40000000000001,0,-0.5999999999999908,0.0
32,21.40000000000001,0,-0.5999999999999908,0.0
33,21.40000000000001,0,-0.5999999999999908,0.0
34,21.40000000000001,0,-0.5999999999999908,0.0
35,21.40000000000001,0,-0.5999999999999908,0.0
36,21.40000000000001,0,-0.5999999999999908,0.0
37,21.40000000000001,0,-0.5999999999999908,0.0
38,21.40000000000001,0,-0.5999999999999908,0.0
39,21.40000000000001,0,-0.5999999999999908,0.0
40,21.40000000000001,0,-0.5999999999999908,0.0
41,21.40000000000001,0,-0.5999999999999908,0.0
42,21.40000000000001,0,-0.5999999999999908,0.0
43,21.40000000000001,0,-0.5999999999999908,0.0
44,21.40000000000001,0,-0.5999999999999908,0.0
45,21.40000000000001,0,-0.5999999999999908,0.0
46,21.40000000000001,0,-0.5999999999999908,0.0
47,21.40000000000001,0,-0.5999999999999908,0.0
48,21.40000000000001,0,-0.5999999999999908,0.0
49,21.40000000000001,0,-0.5999999999999908,0.0
50,21.40000000000001,0,-0.5999999999999908,0.0
51,21.40000000000001,0,-0.5999999999999908,0.0
52,21.40000000000001,0,-0.5999999999999908,0.0
53,21.40000000000001,0,-0.5999999999999908,0.0
54,21.40000000000001,0,-0.5999999999999908,0.0
55,21.40000000000001,0,-0.5999999999999908,0.0
56,21.40000000000001,0,-0.5999999999999908,0.0
57,21.40000000000001,0,-0.5999999999999908,0.0
58,21.40000000000001,0,-0.5999999999999908,0.0
59,21.40000000000001,0,-0.5999999999999908,0.0
60,21.40000000000001,0,-0.5999999999999908,0.0
61,21.40000000000001,0,-0.5999999999999908,0.0
62,21.40000000000001,0,-0.5999999999999908,0.0
63,21.40000000000001,0,-0.5999999999999908,0.0
64,21.40000000000001,0,-0.5999999999999908,0.0
65,21.40000000000001,0,-0.5999999999999908,0.0
66,21.40000000000001,0,-0.5999999999999908,0.0
67,21.40000000000001,0,-0.5999999999999908,0.0
68,21.40000000000001,0,-0.5999999999999908,0.0
69,21.40000000000001,0,-0.5999999999999908,0.0
70,21.40000000000001,0,-0.5999999999999908,0.0
71,21.40000000000001,0,-0.5999999999999908,0.0
72,21.40000000000001,0,-0.5999999999999908,0.0
73,21.40000000000001,0,-0.5999999999999908,0.0
74,21.40000000000001,0,-0.5999999999999908,0.0
75,21.40000000000001,0,-0.5999999999999908,0.0
76,21.40000000000001,0,-0.5999999999999908,0.0
77,21.40000000000001,0,-0.5999999999999908,0.0
78,21.40000000000001,0,-0.5999999999999908,0.0
79,21.40000000000001,0,-0.5999999999999908,0.0
80,21.40000000000001,0,-0.5999999999999908,0.0
81,21.40000000000001,0,-0.5999999999999908,0.0
82,21.40000000000001,0,-0.5999999999999908,0.0
83,21.40000000000001,0,-0.5999999999999908,0.0
84,21.40000000000001,0,-0.5999999999999908,0.0
85,21.40000000000001,0,-0.5999999999999908,0.0
86,21.40000000000001,0,-0.5999999999999908,0.0
87,21.40000000000001,0,-0.5999999999999908,0.0
88,21.40000000000001,0,-0.5999999999999908,0.0
89,21.40000000000001,0,-0.5999999999999908,0.0
90,21.40000000000001,0,-0.5999999999999908,0.0
91,21.40000000000001,0,-0.5999999999999908,0.0
92,21.40000000000001,0,-0.5999999999999908,0.0
93,21.40000000000001,0,-0.5999999999999908,0.0
94,21.40000000000001,0,-0.5999999999999908,0.0
95,21.40000000000001,0,-0.5999999999999908,0.0
96,21.40000000000001,0,-0.5999999999999908,0.0
97,21.40000000000001,0,-0.5999999999999908,0.0
98,21.40000000000001,0,-0.5999999999999908,0.0
99,21.40000000000001,0,-0.5999999999999908,0.0
100,21.40000000000001,0,-0.5999999999999908,0.0
101,21.40000000000001,0,-0.5999999999999908,0.0
102,21.40000000000001,0,-0.5999999999999908,0.0
103,21.40000000000001,0,-0.5999999999999908,0.0
104,21.40000000000001,0,-0.5999999999999908,0.0
105,21.40000000000001,0,-0.5999999999999908,0.0
106,21.40000000000001,0,-0.5999999999999908,0.0
107,21.40000000000001,0,-0.5999999999999908,0.0
108,21.40000000000001,0,-0.5999999999999908,0.0
109,21.40000000000001,0,-0.5999999999999908,0.0
110,21.40000000000001,0,-0.5999999999999908,0.0
111,21.40000000000001,0,-0.5999999999999908,0.0
112,21.40000000000001,0,-0.5999999999999908,0.0
113,21.40000000000001,0,-0.5999999999999908,0.0
114,21.40000000000001,0,-0.5999999999999908,0.0
115,21.40000000000001,0,-0.5999999999999908,0.0
116,21.40000000000001,0,-0.5999999999999908,0.0
117,21.40000000000001,0,-0.5999999999999908,0.0
118,21.40000000000001,0,-0.5999999999999908,0.0
119,21.40000000000001,0,-0.5999999999999908,0.0
120,21.40000000000001,0,-0.5999999999999908,0.0
121,21.40000000000001,0,-0.5999999999999908,0.0
122,21.40000000000001,0,-0.5999999999999908,0.0
123,21.40000000000001,0,-0.5999999999999908,0.0
124,21.40000000000001,0,-0.5999999999999908,0.0
125,21.40000000000001,0,-0.5999999999999908,0.0
126,21.40000000000001,0,-0.5999999999999908,0.0
127,21.40000000000001,0,-0.5999999999999908,0.0
128,21.40000000000001,0,-0.5999999999999908,0.0
129,21.40000000000001,0,-0.5999999999999908,0.0
130,21.40000000000001,0,-0.5999999999999908,0.0
131,21.40000000000001,0,-0.5999999999999908,0.0
132,21.40000000000001,0,-0.5999999999999908,0.0
133,21.40000000000001,0,-0.5999999999999908,0.0
134,21.40000000000001,0,-0.5999999999999908,0.0
135,21.40000000000001,0,-0.5999999999999908,0.0
136,21.40000000000001,0,-0.5999999999999908,0.0
137,21.40000000000001,0,-0.5999999999999908,0.0
138,21.40000000000001,0,-0.5999999999999908,0.0
139,21.40000000000001,0,-0.5999999999999908,0.0
140,21.40000000000001,0,-0.5999999999999908,0.0
141,21.40000000000001,0,-0.5999999999999908,0.0
142,21.40000000000001,0,-0.5999999999999908,0.0
143,21.40000000000001,0,-0.5999999999999908,0.0
144,21.40000000000001,0,-0.5999999999999908,0.0
145,21.40000000000001,0,-0.5999999999999908,0.0
146,21.40000000000001,0,-0.5999999999999908,0.0
147,21.40000000000001,0,-0.5999999999999908,0.0
148,21.40000000000001,0,-0.5999999999999908,0.0
149,21.40000000000001,0,-0.5999999999999908,0.0
150,21.40000000000001,0,-0.5999999999999908,0.0
151,21.40000000000001,0,-0.5999999999999908,0.0
152,21.40000000000001,0,-0.5999999999999908,0.0
153,21.40000000000001,0,-0.5999999999999908,0.0
154,21.40000000000001,0,-0.5999999999999908,0.0
155,21.40000000000001,0,-0.5999999999999908,0.0
156,21.40000000000001,0,-0.5999999999999908,0.0
157,21.40000000000001,0,-0.5999999999999908,0.0
158,21.40000000000001,0,-0.5999999999999908,0.0
159,21.40000000000001,0,-0.5999999999999908,0.0
160,21.40000000000001,0,-0.5999999999999908,0.0
161,21.40000000000001,0,-0.5999999999999908,0.0
162,21.40000000000001,0,-0.5999999999999908,0.0
163,21.40000000000001,0,-0.5999999999999908,0.0
164,21.40000000000001,0,-0.5999999999999908,0.0
165,21.40000000000001,0,-0.5999999999999908,0.0
166,21.40000000000001,0,-0.5999999999999908,0.0
167,21.40000000000001,0,-0.5999999999999908,0.0
168,21.40000000000001,0,-0.5999999999999908,0.0
169,21.40000000000001,0,-0.5999999999999908,0.0
170,21.40000000000001,0,-0.5999999999999908,0.0
171,21.40000000000001,0,-0.5999999999999908,0.0
172,21.40000000000001,0,-0.5999999999999908,0.0
173,21.40000000000001,0,-0.5999999999999908,0.0
174,21.40000000000001,0,-0.5999999999999908,0.0
175,21.40000000000001,0,-0.5999999999999908,0.0
176,21.40000000000001,0,-0.5999999999999908,0.0
177,21.40000000000001,0,-0.5999999999999908,0.0
178,21.40000000000001,0,-0.5999999999999908,0.0
179,21.40000000000001,0,-0.5999999999999908,0.0
180,21.40000000000001,0,-0.5999999999999908,0.0
181,21.40000000000001,0,-0.5999999999999908,0.0
182,21.40000000000001,0,-0.5999999999999908,0.0
183,21.40000000000001,0,-0.5999999999999908,0.0
184,21.40000000000001,0,-0.5999999999999908,0.0
185,21.40000000000001,0,-0.5999999999999908,0.0
186,21.40000000000001,0,-0.5999999999999908,0.0
187,21.40000000000001,0,-0.5999999999999908,0.0
188,21.40000000000001,0,-0.5999999999999908,0.0
189,21.40000000000001,0,-0.5999999999999908,0.0
190,21.40000000000001,0,-0.5999999999999908,0.0
191,21.40000000000001,0,-0.5999999999999908,0.0
192,21.40000000000001,0,-0.5999999999999908,0.0
193,21.40000000000001,0,-0.5999999999999908,0.0
194,21.40000000000001,0,-0.5999999999999908,0.0
195,21.40000000000001,0,-0.5999999999999908,0.0
196,21.40000000000001,0,-0.5999999999999908,0.0
197,21.40000000000001,0,-0.5999999999999908,0.0
198,21.40000000000001,0,-0.5999999999999908,0.0
199,21.40000000000001,0,-0.5999999999999908,0.0
200,21.40000000000001,0,-0.5999999999999908,0.0
201,21.40000000000001,0,-0.5999999999999908,0.0
202,21.40000000000001,0,-0.5999999999999908,0.0
203,21.40000000000001,0,-0.5999999999999908,0.0
204,21.40000000000001,0,-0.5999999999999908,0.0
205,21.40000000000001,0,-0.5999999999999908,0.0
206,21.40000000000001,0,-0.5999999999999908,0.0
207,21.40000000000001,0,-0.5999999999999908,0.0
208,21.40000000000001,0,-0.5999999999999908,0.0
209,21.40000000000001,0,-0.5999999999999908,0.0
210,21.40000000000001,0,-0.5999999999999908,0.0
211,21.40000000000001,0,-0.5999999999999908,0.0
212,21.40000000000001,0,-0.5999999999999908,0.0
213,21.40000000000001,0,-0.5999999999999908,0.0
214,21.40000000000001,0,-0.5999999999999908,0.0
215,21.40000000000001,0,-0.5999999999999908,0.0
216,21.40000000000001,0,-0.5999999999999908,0.0
217,21.40000000000001,0,-0.5999999999999908,0.0
218,21.40000000000001,0,-0.5999999999999908,0.0
219,21.40000000000001,0,-0.5999999999999908,0.0
220,21.40000000000001,0,-0.5999999999999908,0.0
221,21.40000000000001,0,-0.5999999999999908,0.0
222,21.40000000000001,0,-0.5999999999999908,0.0
223,21.40000000000001,0,-0.5999999999999908,0.0
224,21.40000000000001,0,-0.5999999999999908,0.0
225,21.40000000000001,0,-0.5999999999999908,0.0
226,21.40000000000001,0,-0.5999999999999908,0.0
227,21.40000000000001,0,-0.5999999999999908,0.0
228,21.40000000000001,0,-0.5999999999999908,0.0
229,21.40000000000001,0,-0.5999999999999908,0.0
230,21.40000000000001,0,-0.5999999999999908,0.0
231,21.40000000000001,0,-0.5999999999999908,0.0
232,21.40000000000001,0,-0.5999999999999908,0.0
233,21.40000000000001,0,-0.5999999999999908,0.0
234,21.40000000000001,0,-0.5999999999999908,0.0
235,21.40000000000001,0,-0.5999999999999908,0.0
236,21.40000000000001,0,-0.5999999999999908,0.0
237,21.40000000000001,0,-0.5999999999999908,0.0
238,21.40000000000001,0,-0.5999999999999908,0.0
239,21.40000000000001,0,-0.5999999999999908,0.0
240,21.40000000000001,0,-0.5999999999999908,0.0
241,21.40000000000001,0,-0.5999999999999908,0.0
242,21.40000000000001,0,-0.5999999999999908,0.0
243,21.40000000000001,0,-0.5999999999999908,0.0
244,21.40000000000001,0,-0.5999999999999908,0.0
245,21.40000000000001,0,-0.5999999999999908,0.0
246,21.40000000000001,0,-0.5999999999999908,0.0
247,21.40000000000001,0,-0.5999999999999908,0.0
248,21.40000000000001,0,-0.5999999999999908,0.0
249,21.40000000000001,0,-0.5999999999999908,0.0
250,21.40000000000001,0,-0.5999999999999908,0.0
251,21.40000000000001,0,-0.5999999999999908,0.0
252,21.40000000000001,0,-0.5999999999999908,0.0
253,21.40000000000001,0,-0.5999999999999908,0.0
254,21.40000000000001,0,-0.5999999999999908,0.0
255,21.40000000000001,0,-0.5999999999999908,0.0
256,21.40000000000001,0,-0.5999999999999908,0.0
257,21.40000000000001,0,-0.5999999999999908,0.0
258,21.40000000000001,0,-0.5999999999999908,0.0
259,21.40000000000001,0,-0.5999999999999908,0.0
260,21.40000000000001,0,-0.5999999999999908,0.0
261,21.40000000000001,0,-0.5999999999999908,0.0
262,21.40000000000001,0,-0.5999999999999908,0.0
263,21.40000000000001,0,-0.5999999999999908,0.0
264,21.40000000000001,0,-0.5999999999999908,0.0
265,21.40000000000001,0,-0.5999999999999908,0.0
266,21.40000000000001,0,-0.5999999999999908,0.0
267,21.40000000000001,0,-0.5999999999999908,0.0
268,21.40000000000001,0,-0.5999999999999908,0.0
269,21.40000000000001,0,-0.5999999999999908,0.0
270,21.40000000000001,0,-0.5999999999999908,0.0
271,21.40000000000001,0,-0.5999999999999908,0.0
272,21.40000000000001,0,-0.5999999999999908,0.0
273,21.40000000000001,0,-0.5999999999999908,0.0
274,21.40000000000001,0,-0.5999999999999908,0.0
275,21.40000000000001,0,-0.5999999999999908,0.0
276,21.40000000000001,0,-0.5999999999999908,0.0
277,21.40000000000001,0,-0.5999999999999908,0.0
278,21.40000000000001,0,-0.5999999999999908,0.0
279,21.40000000000001,0,-0.5999999999999908,0.0
280,21.40000000000001,0,-0.5999999999999908,0.0
281,21.40000000000001,0,-0.5999999999999908,0.0
282,21.40000000000001,0,-0.5999999999999908,0.0
283,21.40000000000001,0,-0.5999999999999908,0.0
284,21.40000000000001,0,-0.5999999999999908,0.0
285,21.40000000000001,0,-0.5999999999999908,0.0
286,21.40000000000001,0,-0.5999999999999908,0.0
287,21.40000000000001,0,-0.5999999999999908,0.0
288,21.40000000000001,0,-0.5999999999999908,0.0
289,21.40000000000001,0,-0.5999999999999908,0.0
290,21.40000000000001,0,-0.5999999999999908,0.0
291,21.40000000000001,0,-0.5999999999999908,0.0
292,21.40000000000001,0,-0.5999999999999908,0.0
293,21.40000000000001,0,-0.5999999999999908,0.0
294,21.40000000000001,0,-0.5999999999999908,0.0
295,21.40000000000001,0,-0.5999999999999908,0.0
296,21.40000000000001,0,-0.5999999999999908,0.0
297,21.40000000000001,0,-0.5999999999999908,0.0
298,21.40000000000001,0,-0.5999999999999908,0.0
299,21.40000000000001,0,-0.5999999999999908,0.0
300,21.40000000000001,0,-0.5999999999999908,0.0
301,21.40000000000001,0,-0.5999999999999908,0.0
302,21.40000000000001,0,-0.5999999999999908,0.0
303,21.40000000000001,0,-0.5999999999999908,0.0
304,21.40000000000001,0,-0.5999999999999908,0.0
305,21.40000000000001,0,-0.5999999999999908,0.0
306,21.40000000000001,0,-0.5999999999999908,0.0
307,21.40000000000001,0,-0.5999999999999908,0.0
308,21.40000000000001,0,-0.5999999999999908,0.0
309,21.40000000000001,0,-0.5999999999999908,0.0
310,21.40000000000001,0,-0.5999999999999908,0.0
311,21.40000000000001,0,-0.5999999999999908,0.0
312,21.40000000000001,0,-0.5999999999999908,0.0
313,21.40000000000001,0,-0.5999999999999908,0.0
314,21.40000000000001,0,-0.5999999999999908,0.0
315,21.40000000000001,0,-0.5999999999999908,0.0
316,21.40000000000001,0,-0.5999999999999908,0.0
317,21.40000000000001,0,-0.5999999999999908,0.0
318,21.40000000000001,0,-0.5999999999999908,0.0
319,21.40000000000001,0,-0.5999999999999908,0.0
320,21.40000000000001,0,-0.5999999999999908,0.0
321,21.40000000000001,0,-0.5999999999999908,0.0
322,21.40000000000001,0,-0.5999999999999908,0.0
323,21.40000000000001,0,-0.5999999999999908,0.0
324,21.40000000000001,0,-0.5999999999999908,0.0
325,21.40000000000001,0,-0.5999999999999908,0.0
326,21.40000000000001,0,-0.5999999999999908,0.0
327,21.40000000000001,0,-0.5999999999999908,0.0
328,21.40000000000001,0,-0.5999999999999908,0.0
329,21.40000000000001,0,-0.5999999999999908,0.0
330,21.40000000000001,0,-0.5999999999999908,0.0
331,21.40000000000001,0,-0.5999999999999908,0.0
332,21.40000000000001,0,-0.5999999999999908,0.0
333,21.40000000000001,0,-0.5999999999999908,0.0
334,21.40000000000001,0,-0.5999999999999908,0.0
335,21.40000000000001,0,-0.5999999999999908,0.0
336,21.40000000000001,0,-0.5999999999999908,0.0
337,21.40000000000001,0,-0.5999999999999908,0.0
338,21.40000000000001,0,-0.5999999999999908,0.0
339,21.40000000000001,0,-0.5999999999999908,0.0
340,21.40000000000001,0,-0.5999999999999908,0.0
341,21.40000000000001,0,-0.5999999999999908,0.0
342,21.40000000000001,0,-0.5999999999999908,0.0
343,21.40000000000001,0,-0.5999999999999908,0.0
344,21.40000000000001,0,-0.5999999999999908,0.0
345,21.40000000000001,0,-0.5999999999999908,0.0
346,21.40000000000001,0,-0.5999999999999908,0.0
347,21.40000000000001,0,-0.5999999999999908,0.0
348,21.40000000000001,0,-0.5999999999999908,0.0
349,21.40000000000001,0,-0.5999999999999908,0.0
350,21.40000000000001,0,-0.5999999999999908,0.0
351,21.40000000000001,0,-0.5999999999999908,0.0
352,21.40000000000001,0,-0.5999999999999908,0.0
353,21.40000000000001,0,-0.5999999999999908,0.0
354,21.40000000000001,0,-0.5999999999999908,0.0
355,21.40000000000001,0,-0.5999999999999908,0.0
356,21.40000000000001,0,-0.5999999999999908,0.0
357,21.40000000000001,0,-0.5999999999999908,0.0
358,21.40000000000001,0,-0.5999999999999908,0.0
359,21.40000000000001,0,-0.5999999999999908,0.0
360,21.40000000000001,0,-0.5999999999999908,0.0
361,21.40000000000001,0,-0.5999999999999908,0.0
362,21.40000000000001,0,-0.5999999999999908,0.0
363,21.40000000000001,0,-0.5999999999999908,0.0
364,21.40000000000001,0,-0.5999999999999908,0.0
365,21.40000000000001,0,-0.5999999999999908,0.0
366,21.40000000000001,0,-0.5999999999999908,0.0
367,21.40000000000001,0,-0.5999999999999908,0.0
368,21.40000000000001,0,-0.5999999999999908,0.0
369,21.40000000000001,0,-0.5999999999999908,0.0
370,21.40000000000001,0,-0.5999999999999908,0.0
371,21.40000000000001,0,-0.5999999999999908,0.0
372,21.40000000000001,0,-0.5999999999999908,0.0
373,21.40000000000001,0,-0.5999999999999908,0.0
374,21.40000000000001,0,-0.5999999999999908,0.0
375,21.40000000000001,0,-0.5999999999999908,0.0
376,21.40000000000001,0,-0.5999999999999908,0.0
377,21.40000000000001,0,-0.5999999999999908,0.0
378,21.40000000000001,0,-0.5999999999999908,0.0
379,21.40000000000001,0,-0.5999999999999908,0.0
380,21.40000000000001,0,-0.5999999999999908,0.0
381,21.40000000000001,0,-0.5999999999999908,0.0
382,21.40000000000001,0,-0.5999999999999908,0.0
383,21.40000000000001,0,-0.5999999999999908,0.0
384,21.40000000000001,0,-0.5999999999999908,0.0
385,21.40000000000001,0,-0.5999999999999908,0.0
386,21.40000000000001,0,-0.5999999999999908,0.0
387,21.40000000000001,0,-0.5999999999999908,0.0
388,21.40000000000001,0,-0.5999999999999908,0.0
389,21.40000000000001,0,-0.5999999999999908,0.0
390,21.40000000000001,0,-0.5999999999999908,0.0
391,21.40000000000001,0,-0.5999999999999908,0.0
392,21.40000000000001,0,-0.5999999999999908,0.0
393,21.40000000000001,0,-0.5999999999999908,0.0
394,21.40000000000001,0,-0.5999999999999908,0.0
395,21.40000000000001,0,-0.5999999999999908,0.0
396,21.40000000000001,0,-0.5999999999999908,0.0
397,21.40000000000001,0,-0.5999999999999908,0.0
398,21.40000000000001,0,-0.5999999999999908,0.0
399,21.40000000000001,0,-0.5999999999999908,0.0
400,21.40000000000001,0,-0.5999999999999908,0.0
401,21.40000000000001,0,-0.5999999999999908,0.0
402,21.40000000000001,0,-0.5999999999999908,0.0
403,21.40000000000001,0,-0.5999999999999908,0.0
404,21.40000000000001,0,-0.5999999999999908,0.0
405,21.40000000000001,0,-0.5999999999999908,0.0
406,21.40000000000001,0,-0.5999999999999908,0.0
407,21.40000000000001,0,-0.5999999999999908,0.0
408,21.40000000000001,0,-0.5999999999999908,0.0
409,21.40000000000001,0,-0.5999999999999908,0.0
410,21.40000000000001,0,-0.5999999999999908,0.0
411,21.40000000000001,0,-0.5999999999999908,0.0
412,21.40000000000001,0,-0.5999999999999908,0.0
413,21.40000000000001,0,-0.5999999999999908,0.0
414,21.40000000000001,0,-0.5999999999999908,0.0
415,21.40000000000001,0,-0.5999999999999908,0.0
416,21.40000000000001,0,-0.5999999999999908,0.0
417,21.40000000000001,0,-0.5999999999999908,0.0
